SpectraSuite Data File
++++++++++++++++++++++++++++++++++++
Date: Tue Jan 27 13:07:49 EST 2026
User: Claudine
Dark Spectrum Present: Yes
Reference Spectrum Present: No
Number of Sampled Component Spectra: 1
Spectrometers: USB2E3842
Integration Time (usec): 21000 (USB2E3842)
Spectra Averaged: 1 (USB2E3842)
Boxcar Smoothing: 0 (USB2E3842)
Correct for Electrical Dark: No (USB2E3842)
Strobe/Lamp Enabled: No (USB2E3842)
Correct for Detector Non-linearity: No (USB2E3842)
Correct for Stray Light: No (USB2E3842)
Number of Pixels in Processed Spectrum: 2048
>>>>>Begin Processed Spectral Data<<<<<
340.23	0.00
340.61	-4.00
340.98	-9.00
341.36	-4.00
341.73	1.00
342.10	-11.00
342.48	3.00
342.85	-2.00
343.23	1.00
343.60	0.00
343.97	1.00
344.35	-1.00
344.72	1.00
345.10	-3.00
345.47	2.00
345.84	3.00
346.22	4.00
346.59	-6.00
346.97	1.00
347.34	0.00
347.71	-2.00
348.09	1.00
348.46	0.00
348.83	-9.00
349.21	-2.00
349.58	-5.00
349.95	-7.00
350.33	8.00
350.70	3.00
351.07	-1.00
351.45	2.00
351.82	-3.00
352.19	-5.00
352.57	-1.00
352.94	-1.00
353.31	0.00
353.68	-3.00
354.06	4.00
354.43	-1.00
354.80	-5.00
355.18	-6.00
355.55	-5.00
355.92	-2.00
356.29	-2.00
356.67	-3.00
357.04	0.00
357.41	-4.00
357.78	-5.00
358.16	1.00
358.53	-6.00
358.90	-3.00
359.27	-3.00
359.64	-1.00
360.02	11.00
360.39	8.00
360.76	-1.00
361.13	-5.00
361.51	2.00
361.88	-3.00
362.25	-4.00
362.62	-2.00
362.99	10.00
363.36	-4.00
363.74	5.00
364.11	7.00
364.48	-3.00
364.85	-1.00
365.22	-1.00
365.59	-5.00
365.97	-6.00
366.34	-1.00
366.71	-8.00
367.08	-2.00
367.45	-7.00
367.82	-2.00
368.19	-1.00
368.56	2.00
368.94	-8.00
369.31	-2.00
369.68	-3.00
370.05	-6.00
370.42	8.00
370.79	4.00
371.16	-3.00
371.53	-3.00
371.90	0.00
372.27	3.00
372.64	5.00
373.01	1.00
373.39	-6.00
373.76	-7.00
374.13	-4.00
374.50	-6.00
374.87	-9.00
375.24	-2.00
375.61	5.00
375.98	-11.00
376.35	3.00
376.72	-3.00
377.09	-4.00
377.46	-4.00
377.83	-2.00
378.20	-5.00
378.57	7.00
378.94	3.00
379.31	-11.00
379.68	4.00
380.05	9.00
380.42	-14.00
380.79	1.00
381.16	-9.00
381.53	0.00
381.90	-5.00
382.27	-11.00
382.64	0.00
383.01	-3.00
383.38	0.00
383.74	-5.00
384.11	0.00
384.48	-1.00
384.85	2.00
385.22	-7.00
385.59	-2.00
385.96	3.00
386.33	-3.00
386.70	-1.00
387.07	-2.00
387.44	-4.00
387.81	-4.00
388.17	2.00
388.54	1.00
388.91	-6.00
389.28	8.00
389.65	-2.00
390.02	1.00
390.39	0.00
390.76	-8.00
391.12	-5.00
391.49	3.00
391.86	-2.00
392.23	3.00
392.60	-3.00
392.97	-4.00
393.33	5.00
393.70	-3.00
394.07	-4.00
394.44	0.00
394.81	3.00
395.18	-2.00
395.54	3.00
395.91	-6.00
396.28	1.00
396.65	5.00
397.01	0.00
397.38	-4.00
397.75	-2.00
398.12	-6.00
398.49	-1.00
398.85	3.00
399.22	2.00
399.59	-2.00
399.96	5.00
400.32	-3.00
400.69	-1.00
401.06	0.00
401.43	2.00
401.79	10.00
402.16	-1.00
402.53	5.00
402.90	21.00
403.26	18.00
403.63	48.00
404.00	96.00
404.36	162.00
404.73	278.00
405.10	444.00
405.46	649.00
405.83	635.00
406.20	261.00
406.56	40.00
406.93	7.00
407.30	-2.00
407.67	1.00
408.03	6.00
408.40	1.00
408.76	3.00
409.13	-1.00
409.50	2.00
409.86	0.00
410.23	8.00
410.60	0.00
410.96	3.00
411.33	2.00
411.70	6.00
412.06	-5.00
412.43	-3.00
412.79	3.00
413.16	-1.00
413.53	-6.00
413.89	-2.00
414.26	2.00
414.62	-4.00
414.99	-2.00
415.36	1.00
415.72	-4.00
416.09	8.00
416.45	3.00
416.82	-1.00
417.18	-1.00
417.55	-6.00
417.91	-3.00
418.28	-4.00
418.65	5.00
419.01	-2.00
419.38	-2.00
419.74	0.00
420.11	5.00
420.47	-7.00
420.84	-4.00
421.20	-5.00
421.57	-7.00
421.93	1.00
422.30	4.00
422.66	-1.00
423.03	-5.00
423.39	3.00
423.76	-9.00
424.12	0.00
424.49	-5.00
424.85	-6.00
425.22	0.00
425.58	-4.00
425.95	4.00
426.31	-2.00
426.67	-2.00
427.04	-4.00
427.40	-4.00
427.77	-4.00
428.13	4.00
428.50	-4.00
428.86	-5.00
429.22	-3.00
429.59	-5.00
429.95	-1.00
430.32	4.00
430.68	3.00
431.05	-4.00
431.41	-3.00
431.77	-4.00
432.14	0.00
432.50	1.00
432.86	3.00
433.23	-5.00
433.59	0.00
433.96	-6.00
434.32	-2.00
434.68	5.00
435.05	4.00
435.41	-6.00
435.77	-2.00
436.14	3.00
436.50	0.00
436.86	0.00
437.23	2.00
437.59	-1.00
437.95	-9.00
438.32	5.00
438.68	-3.00
439.04	-2.00
439.41	-7.00
439.77	1.00
440.13	1.00
440.50	8.00
440.86	-11.00
441.22	-4.00
441.58	-11.00
441.95	-7.00
442.31	3.00
442.67	6.00
443.03	0.00
443.40	2.00
443.76	-5.00
444.12	0.00
444.49	6.00
444.85	2.00
445.21	-3.00
445.57	-7.00
445.93	-2.00
446.30	2.00
446.66	-7.00
447.02	-3.00
447.38	-3.00
447.75	-1.00
448.11	2.00
448.47	-7.00
448.83	-10.00
449.19	0.00
449.56	1.00
449.92	-7.00
450.28	-3.00
450.64	-4.00
451.00	1.00
451.37	7.00
451.73	2.00
452.09	-3.00
452.45	-13.00
452.81	-4.00
453.17	-2.00
453.54	4.00
453.90	-3.00
454.26	3.00
454.62	5.00
454.98	0.00
455.34	-7.00
455.70	0.00
456.06	0.00
456.43	-6.00
456.79	0.00
457.15	-4.00
457.51	-9.00
457.87	-4.00
458.23	0.00
458.59	3.00
458.95	-3.00
459.31	-2.00
459.67	-6.00
460.04	3.00
460.40	2.00
460.76	-4.00
461.12	-4.00
461.48	-2.00
461.84	1.00
462.20	-4.00
462.56	2.00
462.92	-3.00
463.28	2.00
463.64	-3.00
464.00	-7.00
464.36	7.00
464.72	-4.00
465.08	-3.00
465.44	-8.00
465.80	-3.00
466.16	-1.00
466.52	-8.00
466.88	0.00
467.24	2.00
467.60	2.00
467.96	-9.00
468.32	5.00
468.68	0.00
469.04	-7.00
469.40	4.00
469.76	3.00
470.12	-6.00
470.48	7.00
470.84	11.00
471.20	9.00
471.56	-9.00
471.92	-3.00
472.28	-9.00
472.64	0.00
473.00	-2.00
473.36	-6.00
473.72	-9.00
474.08	-3.00
474.44	0.00
474.79	-2.00
475.15	7.00
475.51	8.00
475.87	-1.00
476.23	-3.00
476.59	10.00
476.95	-5.00
477.31	2.00
477.67	-7.00
478.03	0.00
478.38	4.00
478.74	6.00
479.10	-1.00
479.46	5.00
479.82	-3.00
480.18	2.00
480.54	1.00
480.89	3.00
481.25	2.00
481.61	4.00
481.97	-8.00
482.33	5.00
482.69	3.00
483.04	5.00
483.40	-5.00
483.76	3.00
484.12	-1.00
484.48	-3.00
484.84	3.00
485.19	2.00
485.55	-4.00
485.91	6.00
486.27	10.00
486.63	2.00
486.98	1.00
487.34	8.00
487.70	2.00
488.06	-1.00
488.41	-6.00
488.77	-4.00
489.13	-4.00
489.49	0.00
489.84	-7.00
490.20	-5.00
490.56	-7.00
490.92	-2.00
491.27	-1.00
491.63	-1.00
491.99	-2.00
492.35	3.00
492.70	-9.00
493.06	-7.00
493.42	7.00
493.78	-5.00
494.13	-10.00
494.49	11.00
494.85	-3.00
495.20	-4.00
495.56	-4.00
495.92	1.00
496.27	-4.00
496.63	-7.00
496.99	-4.00
497.34	-7.00
497.70	-1.00
498.06	9.00
498.41	9.00
498.77	0.00
499.13	-5.00
499.48	-3.00
499.84	-1.00
500.20	-11.00
500.55	2.00
500.91	-2.00
501.27	1.00
501.62	-6.00
501.98	-9.00
502.33	1.00
502.69	-7.00
503.05	-6.00
503.40	2.00
503.76	2.00
504.12	-6.00
504.47	9.00
504.83	0.00
505.18	-5.00
505.54	-5.00
505.89	7.00
506.25	1.00
506.61	0.00
506.96	-4.00
507.32	-4.00
507.67	-6.00
508.03	1.00
508.38	4.00
508.74	-2.00
509.10	-6.00
509.45	-2.00
509.81	7.00
510.16	4.00
510.52	-3.00
510.87	10.00
511.23	5.00
511.58	-4.00
511.94	7.00
512.29	5.00
512.65	0.00
513.00	0.00
513.36	1.00
513.71	-3.00
514.07	2.00
514.42	-4.00
514.78	-4.00
515.13	1.00
515.49	-1.00
515.84	-2.00
516.20	-4.00
516.55	-5.00
516.91	2.00
517.26	4.00
517.62	8.00
517.97	-7.00
518.33	5.00
518.68	1.00
519.03	-5.00
519.39	1.00
519.74	-2.00
520.10	1.00
520.45	3.00
520.81	-2.00
521.16	-4.00
521.51	3.00
521.87	1.00
522.22	4.00
522.58	3.00
522.93	3.00
523.28	-10.00
523.64	4.00
523.99	3.00
524.35	2.00
524.70	1.00
525.05	-3.00
525.41	0.00
525.76	5.00
526.11	-4.00
526.47	9.00
526.82	4.00
527.18	1.00
527.53	0.00
527.88	-3.00
528.24	6.00
528.59	-5.00
528.94	-1.00
529.30	-6.00
529.65	-1.00
530.00	-6.00
530.36	-1.00
530.71	-5.00
531.06	-8.00
531.42	-2.00
531.77	-4.00
532.12	-8.00
532.48	-3.00
532.83	-4.00
533.18	-1.00
533.53	-36.00
533.89	-4.00
534.24	7.00
534.59	-1.00
534.95	-2.00
535.30	6.00
535.65	-3.00
536.00	-1.00
536.36	6.00
536.71	-1.00
537.06	1.00
537.41	-1.00
537.77	5.00
538.12	-3.00
538.47	-1.00
538.82	0.00
539.18	-1.00
539.53	3.00
539.88	-5.00
540.23	4.00
540.58	-4.00
540.94	3.00
541.29	-1.00
541.64	0.00
541.99	2.00
542.34	-5.00
542.70	-4.00
543.05	-2.00
543.40	-1.00
543.75	-5.00
544.10	5.00
544.46	-4.00
544.81	7.00
545.16	-1.00
545.51	1.00
545.86	-4.00
546.21	0.00
546.57	-4.00
546.92	-3.00
547.27	-5.00
547.62	-4.00
547.97	-2.00
548.32	7.00
548.67	-2.00
549.03	0.00
549.38	2.00
549.73	-4.00
550.08	2.00
550.43	-1.00
550.78	4.00
551.13	-3.00
551.48	9.00
551.83	-1.00
552.19	-6.00
552.54	-5.00
552.89	1.00
553.24	-7.00
553.59	-2.00
553.94	-3.00
554.29	-11.00
554.64	-2.00
554.99	6.00
555.34	-3.00
555.69	-5.00
556.04	-13.00
556.39	-5.00
556.75	-3.00
557.10	0.00
557.45	-2.00
557.80	-6.00
558.15	-3.00
558.50	-2.00
558.85	-10.00
559.20	1.00
559.55	1.00
559.90	1.00
560.25	0.00
560.60	4.00
560.95	2.00
561.30	-11.00
561.65	4.00
562.00	3.00
562.35	1.00
562.70	11.00
563.05	1.00
563.40	1.00
563.75	-4.00
564.10	-1.00
564.45	-3.00
564.80	-4.00
565.15	0.00
565.50	-3.00
565.85	-4.00
566.20	1.00
566.54	-3.00
566.89	1.00
567.24	1.00
567.59	-5.00
567.94	2.00
568.29	-1.00
568.64	-4.00
568.99	3.00
569.34	3.00
569.69	-3.00
570.04	3.00
570.39	0.00
570.74	0.00
571.09	-1.00
571.43	0.00
571.78	0.00
572.13	-3.00
572.48	3.00
572.83	0.00
573.18	10.00
573.53	6.00
573.88	-1.00
574.23	-4.00
574.57	8.00
574.92	2.00
575.27	0.00
575.62	-3.00
575.97	-1.00
576.32	-1.00
576.67	2.00
577.01	2.00
577.36	-2.00
577.71	8.00
578.06	-2.00
578.41	4.00
578.76	2.00
579.10	3.00
579.45	4.00
579.80	-6.00
580.15	0.00
580.50	0.00
580.84	-12.00
581.19	-5.00
581.54	-4.00
581.89	4.00
582.24	1.00
582.58	-2.00
582.93	-3.00
583.28	-1.00
583.63	3.00
583.98	-3.00
584.32	4.00
584.67	-3.00
585.02	3.00
585.37	-2.00
585.71	1.00
586.06	-3.00
586.41	-2.00
586.76	-3.00
587.10	2.00
587.45	8.00
587.80	-7.00
588.15	11.00
588.49	-6.00
588.84	-6.00
589.19	7.00
589.53	-2.00
589.88	5.00
590.23	-13.00
590.58	-4.00
590.92	2.00
591.27	-6.00
591.62	-2.00
591.96	6.00
592.31	-2.00
592.66	2.00
593.00	3.00
593.35	-7.00
593.70	-4.00
594.04	6.00
594.39	0.00
594.74	6.00
595.08	2.00
595.43	5.00
595.78	-3.00
596.12	-10.00
596.47	4.00
596.82	-3.00
597.16	0.00
597.51	0.00
597.86	-3.00
598.20	-2.00
598.55	-4.00
598.90	3.00
599.24	-1.00
599.59	0.00
599.93	-7.00
600.28	14.00
600.63	3.00
600.97	2.00
601.32	0.00
601.66	0.00
602.01	0.00
602.36	-1.00
602.70	-2.00
603.05	2.00
603.39	0.00
603.74	3.00
604.09	-6.00
604.43	4.00
604.78	2.00
605.12	3.00
605.47	-2.00
605.81	3.00
606.16	-3.00
606.50	6.00
606.85	-3.00
607.20	-4.00
607.54	7.00
607.89	-4.00
608.23	-3.00
608.58	-5.00
608.92	-3.00
609.27	5.00
609.61	-3.00
609.96	-13.00
610.30	-4.00
610.65	-9.00
610.99	-5.00
611.34	-14.00
611.68	-6.00
612.03	-8.00
612.37	0.00
612.72	1.00
613.06	-2.00
613.41	-6.00
613.75	-1.00
614.10	2.00
614.44	-6.00
614.79	-5.00
615.13	-2.00
615.48	0.00
615.82	9.00
616.16	0.00
616.51	-3.00
616.85	4.00
617.20	0.00
617.54	6.00
617.89	0.00
618.23	-4.00
618.58	-4.00
618.92	-6.00
619.26	-2.00
619.61	0.00
619.95	0.00
620.30	1.00
620.64	-4.00
620.98	-5.00
621.33	7.00
621.67	-9.00
622.02	0.00
622.36	-4.00
622.70	-1.00
623.05	0.00
623.39	5.00
623.74	-7.00
624.08	0.00
624.42	0.00
624.77	-8.00
625.11	-1.00
625.46	-13.00
625.80	-4.00
626.14	2.00
626.49	-1.00
626.83	-4.00
627.17	-5.00
627.52	-4.00
627.86	-2.00
628.20	2.00
628.55	-10.00
628.89	5.00
629.23	4.00
629.58	10.00
629.92	5.00
630.26	2.00
630.61	-3.00
630.95	-2.00
631.29	5.00
631.64	-4.00
631.98	6.00
632.32	-4.00
632.66	0.00
633.01	6.00
633.35	2.00
633.69	1.00
634.04	5.00
634.38	-2.00
634.72	-2.00
635.06	1.00
635.41	-4.00
635.75	-1.00
636.09	0.00
636.43	3.00
636.78	-2.00
637.12	-1.00
637.46	4.00
637.80	3.00
638.15	1.00
638.49	1.00
638.83	-1.00
639.17	-5.00
639.52	-2.00
639.86	3.00
640.20	2.00
640.54	0.00
640.89	-2.00
641.23	8.00
641.57	-1.00
641.91	0.00
642.25	-4.00
642.60	-1.00
642.94	3.00
643.28	0.00
643.62	-8.00
643.96	-9.00
644.31	3.00
644.65	-1.00
644.99	0.00
645.33	-4.00
645.67	-8.00
646.01	-1.00
646.36	-4.00
646.70	-4.00
647.04	1.00
647.38	3.00
647.72	2.00
648.06	-5.00
648.41	-3.00
648.75	-1.00
649.09	-1.00
649.43	3.00
649.77	-3.00
650.11	0.00
650.45	-8.00
650.79	0.00
651.14	6.00
651.48	-8.00
651.82	2.00
652.16	-2.00
652.50	2.00
652.84	-5.00
653.18	9.00
653.52	6.00
653.86	-2.00
654.21	-3.00
654.55	10.00
654.89	0.00
655.23	-3.00
655.57	3.00
655.91	1.00
656.25	-3.00
656.59	1.00
656.93	0.00
657.27	8.00
657.61	-3.00
657.95	1.00
658.29	-8.00
658.63	-6.00
658.97	5.00
659.31	-3.00
659.66	1.00
660.00	2.00
660.34	-1.00
660.68	3.00
661.02	0.00
661.36	-8.00
661.70	6.00
662.04	10.00
662.38	-2.00
662.72	-1.00
663.06	-11.00
663.40	0.00
663.74	1.00
664.08	6.00
664.42	-3.00
664.76	-2.00
665.10	-4.00
665.44	2.00
665.78	4.00
666.12	-4.00
666.46	2.00
666.80	5.00
667.14	2.00
667.48	0.00
667.82	-6.00
668.16	-6.00
668.49	-8.00
668.83	-4.00
669.17	-3.00
669.51	1.00
669.85	2.00
670.19	-4.00
670.53	-1.00
670.87	-2.00
671.21	-6.00
671.55	-5.00
671.89	-1.00
672.23	7.00
672.57	-2.00
672.91	-1.00
673.25	1.00
673.58	-4.00
673.92	0.00
674.26	5.00
674.60	0.00
674.94	-4.00
675.28	-6.00
675.62	1.00
675.96	-1.00
676.30	2.00
676.64	2.00
676.97	-4.00
677.31	1.00
677.65	9.00
677.99	0.00
678.33	-1.00
678.67	2.00
679.01	2.00
679.34	-3.00
679.68	-4.00
680.02	-6.00
680.36	3.00
680.70	-5.00
681.04	-1.00
681.38	2.00
681.71	-4.00
682.05	-7.00
682.39	-8.00
682.73	-6.00
683.07	3.00
683.41	-3.00
683.74	-7.00
684.08	-6.00
684.42	-11.00
684.76	-2.00
685.10	-3.00
685.43	-1.00
685.77	-2.00
686.11	-1.00
686.45	-4.00
686.79	5.00
687.12	-13.00
687.46	-5.00
687.80	11.00
688.14	-2.00
688.47	-1.00
688.81	-4.00
689.15	-5.00
689.49	1.00
689.83	2.00
690.16	7.00
690.50	-10.00
690.84	1.00
691.18	5.00
691.51	2.00
691.85	3.00
692.19	0.00
692.52	-6.00
692.86	2.00
693.20	-10.00
693.54	-1.00
693.87	-9.00
694.21	2.00
694.55	-7.00
694.89	-1.00
695.22	-1.00
695.56	2.00
695.90	-7.00
696.23	-4.00
696.57	5.00
696.91	2.00
697.25	0.00
697.58	-5.00
697.92	-2.00
698.26	5.00
698.59	0.00
698.93	-7.00
699.27	2.00
699.60	0.00
699.94	-2.00
700.28	-8.00
700.61	1.00
700.95	-7.00
701.29	-2.00
701.62	-2.00
701.96	-4.00
702.30	4.00
702.63	0.00
702.97	-2.00
703.30	2.00
703.64	1.00
703.98	4.00
704.31	-2.00
704.65	3.00
704.99	-14.00
705.32	-2.00
705.66	5.00
706.00	-6.00
706.33	-8.00
706.67	-9.00
707.00	-16.00
707.34	4.00
707.68	9.00
708.01	0.00
708.35	-1.00
708.68	-3.00
709.02	-5.00
709.36	-5.00
709.69	-2.00
710.03	-1.00
710.36	-2.00
710.70	-6.00
711.03	-2.00
711.37	3.00
711.71	-6.00
712.04	-2.00
712.38	-3.00
712.71	-3.00
713.05	-8.00
713.38	-4.00
713.72	-1.00
714.05	-9.00
714.39	-3.00
714.72	-5.00
715.06	-2.00
715.40	1.00
715.73	-5.00
716.07	-1.00
716.40	0.00
716.74	-2.00
717.07	0.00
717.41	-7.00
717.74	-5.00
718.08	3.00
718.41	-1.00
718.75	0.00
719.08	-1.00
719.42	-5.00
719.75	-9.00
720.09	-8.00
720.42	1.00
720.76	-14.00
721.09	-2.00
721.43	-11.00
721.76	-1.00
722.10	2.00
722.43	-6.00
722.77	2.00
723.10	-8.00
723.43	1.00
723.77	3.00
724.10	3.00
724.44	-2.00
724.77	-6.00
725.11	-4.00
725.44	-20.00
725.78	0.00
726.11	-7.00
726.45	4.00
726.78	-7.00
727.11	-7.00
727.45	-3.00
727.78	-2.00
728.12	1.00
728.45	-2.00
728.78	-3.00
729.12	-3.00
729.45	6.00
729.79	1.00
730.12	-1.00
730.46	-1.00
730.79	9.00
731.12	5.00
731.46	-1.00
731.79	-5.00
732.12	-3.00
732.46	-3.00
732.79	-5.00
733.13	3.00
733.46	-1.00
733.79	2.00
734.13	6.00
734.46	1.00
734.79	-5.00
735.13	-6.00
735.46	1.00
735.80	-2.00
736.13	-6.00
736.46	1.00
736.80	7.00
737.13	0.00
737.46	-10.00
737.80	1.00
738.13	-2.00
738.46	4.00
738.80	0.00
739.13	-8.00
739.46	-2.00
739.80	-4.00
740.13	5.00
740.46	-3.00
740.80	-8.00
741.13	0.00
741.46	8.00
741.79	-12.00
742.13	-3.00
742.46	-15.00
742.79	-5.00
743.13	-4.00
743.46	0.00
743.79	3.00
744.12	0.00
744.46	1.00
744.79	4.00
745.12	-8.00
745.46	-8.00
745.79	8.00
746.12	5.00
746.45	2.00
746.79	7.00
747.12	3.00
747.45	3.00
747.78	1.00
748.12	-1.00
748.45	-8.00
748.78	-5.00
749.11	7.00
749.45	-6.00
749.78	3.00
750.11	0.00
750.44	-7.00
750.78	-8.00
751.11	10.00
751.44	7.00
751.77	2.00
752.10	0.00
752.44	2.00
752.77	-2.00
753.10	0.00
753.43	-7.00
753.76	-1.00
754.10	-6.00
754.43	-2.00
754.76	5.00
755.09	-2.00
755.42	8.00
755.76	-5.00
756.09	1.00
756.42	-6.00
756.75	2.00
757.08	-5.00
757.42	-1.00
757.75	-7.00
758.08	-2.00
758.41	-4.00
758.74	-9.00
759.07	5.00
759.41	-8.00
759.74	3.00
760.07	1.00
760.40	2.00
760.73	-1.00
761.06	4.00
761.39	-6.00
761.73	-3.00
762.06	-4.00
762.39	-2.00
762.72	-7.00
763.05	-2.00
763.38	-4.00
763.71	0.00
764.04	0.00
764.37	-3.00
764.71	-2.00
765.04	-6.00
765.37	1.00
765.70	6.00
766.03	-7.00
766.36	-3.00
766.69	1.00
767.02	1.00
767.35	0.00
767.68	-7.00
768.02	3.00
768.35	-2.00
768.68	-1.00
769.01	-2.00
769.34	1.00
769.67	-4.00
770.00	3.00
770.33	-6.00
770.66	-5.00
770.99	0.00
771.32	1.00
771.65	-5.00
771.98	4.00
772.31	-1.00
772.64	-6.00
772.97	-2.00
773.31	-2.00
773.64	4.00
773.97	-3.00
774.30	-1.00
774.63	0.00
774.96	-5.00
775.29	-4.00
775.62	-6.00
775.95	3.00
776.28	0.00
776.61	-1.00
776.94	-8.00
777.27	-1.00
777.60	1.00
777.93	-2.00
778.26	5.00
778.59	6.00
778.92	2.00
779.25	2.00
779.58	-6.00
779.91	6.00
780.24	-3.00
780.57	1.00
780.90	-1.00
781.23	4.00
781.56	-1.00
781.89	-6.00
782.22	0.00
782.55	-5.00
782.87	2.00
783.20	1.00
783.53	-5.00
783.86	1.00
784.19	-3.00
784.52	-3.00
784.85	1.00
785.18	-4.00
785.51	0.00
785.84	-2.00
786.17	-7.00
786.50	6.00
786.83	-8.00
787.16	2.00
787.49	7.00
787.82	-2.00
788.14	-4.00
788.47	9.00
788.80	4.00
789.13	3.00
789.46	-2.00
789.79	-8.00
790.12	-4.00
790.45	3.00
790.78	5.00
791.11	0.00
791.44	1.00
791.76	-7.00
792.09	2.00
792.42	3.00
792.75	-7.00
793.08	-1.00
793.41	6.00
793.74	-2.00
794.07	6.00
794.39	-1.00
794.72	-8.00
795.05	3.00
795.38	0.00
795.71	4.00
796.04	3.00
796.37	-3.00
796.69	2.00
797.02	3.00
797.35	6.00
797.68	-5.00
798.01	0.00
798.34	-6.00
798.66	2.00
798.99	1.00
799.32	3.00
799.65	-5.00
799.98	-4.00
800.31	-7.00
800.63	-8.00
800.96	6.00
801.29	0.00
801.62	-5.00
801.95	0.00
802.27	4.00
802.60	2.00
802.93	-8.00
803.26	-1.00
803.59	-2.00
803.91	0.00
804.24	-4.00
804.57	-4.00
804.90	1.00
805.23	-2.00
805.55	0.00
805.88	2.00
806.21	0.00
806.54	-4.00
806.86	-9.00
807.19	-3.00
807.52	5.00
807.85	2.00
808.18	-9.00
808.50	11.00
808.83	-3.00
809.16	-2.00
809.49	-5.00
809.81	2.00
810.14	1.00
810.47	-5.00
810.79	4.00
811.12	-3.00
811.45	1.00
811.78	3.00
812.10	0.00
812.43	4.00
812.76	-1.00
813.09	-6.00
813.41	2.00
813.74	-1.00
814.07	3.00
814.39	-2.00
814.72	-1.00
815.05	5.00
815.38	0.00
815.70	5.00
816.03	-5.00
816.36	2.00
816.68	0.00
817.01	0.00
817.34	1.00
817.66	-2.00
817.99	2.00
818.32	5.00
818.64	-2.00
818.97	5.00
819.30	0.00
819.62	-3.00
819.95	-5.00
820.28	1.00
820.60	11.00
820.93	-3.00
821.26	3.00
821.58	-4.00
821.91	-6.00
822.24	3.00
822.56	-1.00
822.89	0.00
823.22	4.00
823.54	6.00
823.87	1.00
824.20	-5.00
824.52	-7.00
824.85	4.00
825.17	0.00
825.50	-2.00
825.83	-3.00
826.15	-5.00
826.48	-7.00
826.81	2.00
827.13	7.00
827.46	-4.00
827.78	5.00
828.11	-5.00
828.44	5.00
828.76	0.00
829.09	-12.00
829.41	2.00
829.74	-5.00
830.07	-1.00
830.39	-8.00
830.72	6.00
831.04	-3.00
831.37	7.00
831.69	-5.00
832.02	-2.00
832.35	-6.00
832.67	-1.00
833.00	6.00
833.32	-5.00
833.65	4.00
833.97	-10.00
834.30	-4.00
834.63	-4.00
834.95	-7.00
835.28	6.00
835.60	-1.00
835.93	-7.00
836.25	4.00
836.58	0.00
836.90	4.00
837.23	-6.00
837.55	-1.00
837.88	3.00
838.20	4.00
838.53	-1.00
838.86	-1.00
839.18	-8.00
839.51	-8.00
839.83	5.00
840.16	-12.00
840.48	3.00
840.81	-1.00
841.13	5.00
841.46	4.00
841.78	-2.00
842.11	1.00
842.43	0.00
842.76	-8.00
843.08	-1.00
843.41	4.00
843.73	1.00
844.06	3.00
844.38	3.00
844.71	4.00
845.03	6.00
845.35	5.00
845.68	-1.00
846.00	-1.00
846.33	-1.00
846.65	-1.00
846.98	-10.00
847.30	-14.00
847.63	0.00
847.95	-6.00
848.28	1.00
848.60	-3.00
848.93	-5.00
849.25	-9.00
849.57	-4.00
849.90	3.00
850.22	9.00
850.55	-11.00
850.87	9.00
851.20	-1.00
851.52	0.00
851.84	8.00
852.17	-5.00
852.49	0.00
852.82	4.00
853.14	1.00
853.47	-7.00
853.79	3.00
854.11	-3.00
854.44	1.00
854.76	1.00
855.09	-4.00
855.41	-4.00
855.73	-2.00
856.06	0.00
856.38	-2.00
856.71	-7.00
857.03	3.00
857.35	4.00
857.68	0.00
858.00	-4.00
858.32	3.00
858.65	0.00
858.97	5.00
859.30	8.00
859.62	1.00
859.94	-4.00
860.27	-3.00
860.59	2.00
860.91	-2.00
861.24	2.00
861.56	-5.00
861.88	9.00
862.21	-2.00
862.53	-2.00
862.86	3.00
863.18	-4.00
863.50	-2.00
863.83	7.00
864.15	0.00
864.47	-1.00
864.80	5.00
865.12	3.00
865.44	-3.00
865.77	0.00
866.09	-3.00
866.41	-1.00
866.73	-7.00
867.06	-6.00
867.38	1.00
867.70	3.00
868.03	7.00
868.35	9.00
868.67	1.00
869.00	-3.00
869.32	-7.00
869.64	3.00
869.97	-4.00
870.29	-2.00
870.61	-3.00
870.93	1.00
871.26	4.00
871.58	6.00
871.90	0.00
872.23	-1.00
872.55	-7.00
872.87	-5.00
873.19	-3.00
873.52	-5.00
873.84	0.00
874.16	0.00
874.48	0.00
874.81	-4.00
875.13	-6.00
875.45	5.00
875.77	4.00
876.10	7.00
876.42	-4.00
876.74	2.00
877.06	-6.00
877.39	-4.00
877.71	-6.00
878.03	-3.00
878.35	0.00
878.68	-2.00
879.00	-4.00
879.32	3.00
879.64	8.00
879.97	-5.00
880.29	5.00
880.61	-1.00
880.93	5.00
881.25	-6.00
881.58	0.00
881.90	-4.00
882.22	1.00
882.54	5.00
882.86	-2.00
883.19	-5.00
883.51	-1.00
883.83	-3.00
884.15	2.00
884.47	0.00
884.80	7.00
885.12	0.00
885.44	-5.00
885.76	0.00
886.08	-7.00
886.41	-3.00
886.73	-2.00
887.05	-4.00
887.37	-8.00
887.69	-3.00
888.01	-2.00
888.34	5.00
888.66	-3.00
888.98	-1.00
889.30	-10.00
889.62	3.00
889.94	-7.00
890.26	-3.00
890.59	-7.00
890.91	-2.00
891.23	-7.00
891.55	0.00
891.87	5.00
892.19	1.00
892.51	1.00
892.84	-1.00
893.16	1.00
893.48	4.00
893.80	10.00
894.12	-2.00
894.44	-3.00
894.76	0.00
895.08	-1.00
895.41	-5.00
895.73	-10.00
896.05	-4.00
896.37	1.00
896.69	0.00
897.01	2.00
897.33	-3.00
897.65	7.00
897.97	-9.00
898.30	5.00
898.62	-4.00
898.94	2.00
899.26	-6.00
899.58	2.00
899.90	-7.00
900.22	-4.00
900.54	-5.00
900.86	1.00
901.18	-1.00
901.50	0.00
901.82	-6.00
902.15	1.00
902.47	-9.00
902.79	-5.00
903.11	-3.00
903.43	-4.00
903.75	4.00
904.07	-2.00
904.39	4.00
904.71	-7.00
905.03	3.00
905.35	5.00
905.67	2.00
905.99	-4.00
906.31	1.00
906.63	-1.00
906.95	-8.00
907.27	-2.00
907.59	3.00
907.91	-6.00
908.23	1.00
908.55	-1.00
908.88	4.00
909.20	3.00
909.52	-6.00
909.84	1.00
910.16	4.00
910.48	3.00
910.80	-8.00
911.12	-6.00
911.44	3.00
911.76	0.00
912.08	5.00
912.40	-1.00
912.72	-4.00
913.04	0.00
913.36	-1.00
913.68	5.00
914.00	-3.00
914.32	2.00
914.64	1.00
914.96	-12.00
915.28	-4.00
915.60	0.00
915.92	1.00
916.23	-8.00
916.55	6.00
916.87	0.00
917.19	0.00
917.51	-6.00
917.83	-2.00
918.15	-2.00
918.47	0.00
918.79	-5.00
919.11	-1.00
919.43	1.00
919.75	-6.00
920.07	-3.00
920.39	8.00
920.71	-4.00
921.03	-1.00
921.35	-2.00
921.67	3.00
921.99	2.00
922.31	-12.00
922.63	-2.00
922.94	-5.00
923.26	-3.00
923.58	0.00
923.90	-1.00
924.22	0.00
924.54	-1.00
924.86	-4.00
925.18	-5.00
925.50	2.00
925.82	-2.00
926.14	-8.00
926.46	-3.00
926.78	-4.00
927.09	-2.00
927.41	1.00
927.73	-5.00
928.05	-4.00
928.37	-1.00
928.69	1.00
929.01	-3.00
929.33	-4.00
929.65	-3.00
929.96	-4.00
930.28	1.00
930.60	-1.00
930.92	4.00
931.24	1.00
931.56	0.00
931.88	0.00
932.20	2.00
932.51	-1.00
932.83	4.00
933.15	-1.00
933.47	1.00
933.79	-1.00
934.11	-7.00
934.43	-5.00
934.75	-1.00
935.06	-4.00
935.38	-2.00
935.70	-3.00
936.02	0.00
936.34	-1.00
936.66	2.00
936.97	-9.00
937.29	-2.00
937.61	0.00
937.93	0.00
938.25	-3.00
938.57	-1.00
938.88	0.00
939.20	2.00
939.52	-11.00
939.84	-3.00
940.16	-6.00
940.48	0.00
940.79	-2.00
941.11	4.00
941.43	-3.00
941.75	-7.00
942.07	-4.00
942.38	3.00
942.70	-5.00
943.02	-13.00
943.34	2.00
943.66	-1.00
943.97	3.00
944.29	-3.00
944.61	1.00
944.93	5.00
945.25	-5.00
945.56	3.00
945.88	-5.00
946.20	-3.00
946.52	-2.00
946.84	-8.00
947.15	4.00
947.47	-6.00
947.79	1.00
948.11	-2.00
948.42	-4.00
948.74	0.00
949.06	-3.00
949.38	0.00
949.69	-2.00
950.01	-7.00
950.33	0.00
950.65	-2.00
950.96	-12.00
951.28	-6.00
951.60	-6.00
951.92	3.00
952.23	-1.00
952.55	-4.00
952.87	4.00
953.19	-6.00
953.50	-5.00
953.82	0.00
954.14	6.00
954.46	-1.00
954.77	5.00
955.09	4.00
955.41	4.00
955.73	-4.00
956.04	-8.00
956.36	-2.00
956.68	-5.00
956.99	-6.00
957.31	1.00
957.63	-5.00
957.95	-5.00
958.26	-3.00
958.58	4.00
958.90	-7.00
959.21	-2.00
959.53	2.00
959.85	-4.00
960.16	-3.00
960.48	-4.00
960.80	-4.00
961.12	-2.00
961.43	1.00
961.75	-6.00
962.07	-6.00
962.38	-8.00
962.70	-2.00
963.02	-8.00
963.33	-10.00
963.65	-10.00
963.97	-2.00
964.28	0.00
964.60	3.00
964.92	5.00
965.23	1.00
965.55	7.00
965.87	-2.00
966.18	-3.00
966.50	-2.00
966.82	3.00
967.13	-8.00
967.45	-5.00
967.77	2.00
968.08	1.00
968.40	-5.00
968.72	-11.00
969.03	0.00
969.35	5.00
969.67	4.00
969.98	-2.00
970.30	-9.00
970.61	-4.00
970.93	6.00
971.25	-2.00
971.56	-5.00
971.88	4.00
972.20	-4.00
972.51	1.00
972.83	0.00
973.14	-5.00
973.46	1.00
973.78	8.00
974.09	10.00
974.41	2.00
974.72	0.00
975.04	6.00
975.36	2.00
975.67	0.00
975.99	-5.00
976.31	-1.00
976.62	2.00
976.94	-6.00
977.25	8.00
977.57	-1.00
977.88	-2.00
978.20	-9.00
978.52	-10.00
978.83	1.00
979.15	4.00
979.46	0.00
979.78	-3.00
980.10	-4.00
980.41	4.00
980.73	-2.00
981.04	-14.00
981.36	-2.00
981.67	-11.00
981.99	-4.00
982.31	-2.00
982.62	6.00
982.94	-5.00
983.25	1.00
983.57	7.00
983.88	-5.00
984.20	-1.00
984.51	0.00
984.83	-2.00
985.15	2.00
985.46	-5.00
985.78	7.00
986.09	-9.00
986.41	-2.00
986.72	1.00
987.04	-8.00
987.35	1.00
987.67	3.00
987.98	-7.00
988.30	-1.00
988.62	5.00
988.93	0.00
989.25	1.00
989.56	-2.00
989.88	4.00
990.19	-3.00
990.51	-3.00
990.82	-2.00
991.14	0.00
991.45	-1.00
991.77	-11.00
992.08	4.00
992.40	3.00
992.71	-9.00
993.03	-3.00
993.34	-2.00
993.66	0.00
993.97	-9.00
994.29	3.00
994.60	0.00
994.92	4.00
995.23	4.00
995.55	-3.00
995.86	-1.00
996.18	-10.00
996.49	-1.00
996.81	0.00
997.12	4.00
997.44	7.00
997.75	-2.00
998.07	-4.00
998.38	-4.00
998.70	-3.00
999.01	-6.00
999.32	-7.00
999.64	6.00
999.95	0.00
1000.27	-6.00
1000.58	2.00
1000.90	-6.00
1001.21	0.00
1001.53	-3.00
1001.84	-8.00
1002.16	5.00
1002.47	2.00
1002.79	1.00
1003.10	-2.00
1003.41	-11.00
1003.73	-7.00
1004.04	3.00
1004.36	0.00
1004.67	0.00
1004.99	-2.00
1005.30	-5.00
1005.61	-5.00
1005.93	-9.00
1006.24	2.00
1006.56	3.00
1006.87	-3.00
1007.19	3.00
1007.50	-3.00
1007.81	3.00
1008.13	3.00
1008.44	1.00
1008.76	0.00
1009.07	-2.00
1009.39	-5.00
1009.70	0.00
1010.01	0.00
1010.33	7.00
1010.64	3.00
1010.96	-9.00
1011.27	8.00
1011.58	-3.00
1011.90	-5.00
1012.21	-6.00
1012.53	-5.00
1012.84	-7.00
1013.15	7.00
1013.47	4.00
1013.78	-6.00
1014.10	-2.00
1014.41	2.00
1014.72	1.00
1015.04	-6.00
1015.35	-3.00
1015.66	0.00
1015.98	1.00
1016.29	-2.00
1016.61	2.00
1016.92	6.00
1017.23	-6.00
1017.55	0.00
1017.86	5.00
1018.17	-10.00
1018.49	-5.00
1018.80	5.00
1019.12	1.00
1019.43	1.00
1019.74	2.00
1020.06	-6.00
1020.37	-11.00
1020.68	-3.00
1021.00	-8.00
1021.31	-7.00
1021.62	5.00
1021.94	1.00
1022.25	-7.00
1022.56	-7.00
1022.88	2.00
1023.19	-10.00
1023.50	1.00
1023.82	0.00
1024.13	5.00
1024.44	3.00
1024.76	-5.00
1025.07	0.00
1025.38	3.00
1025.70	8.00
1026.01	-2.00
1026.32	-2.00
1026.64	-2.00
1026.95	7.00
1027.26	5.00
1027.58	4.00
1027.89	-4.00
1028.20	-5.00
1028.52	-2.00
1028.83	13.00
1029.14	-3.00
1029.46	8.00
1029.77	-1.00
1030.08	-4.00
1030.39	4.00
1030.71	5.00
1031.02	-3.00
1031.33	2.00
1031.65	6.00
1031.96	3.00
1032.27	-3.00
1032.59	-5.00
1032.90	1.00
1033.21	-3.00
1033.52	6.00
1033.84	-4.00
>>>>>End Processed Spectral Data<<<<<
