Fluo 0.1 target,,Fluo 0.1 target,,Fluo 0.08 target,,Fluo 0.06 target,,Fluo 0.04 target,,
Wavelength (nm),Abs,Wavelength (nm),Abs,Wavelength (nm),Abs,Wavelength (nm),Abs,Wavelength (nm),Abs,
699.9856567,0.002084101783,699.9856567,0.00193472323,699.9856567,-0.0004256672692,699.9856567,-0.0003170908603,699.9856567,0.0001453481527,
698.979126,0.001927650883,698.979126,0.001822177204,698.979126,-0.0004832808918,698.979126,-0.0004275809624,698.979126,0.0002111255017,
697.972229,0.001785422093,697.972229,0.001843155478,697.972229,-0.0007586242282,697.972229,-0.0006279535592,697.972229,-0.0002440360986,
696.9650269,0.002069562208,696.9650269,0.002183447359,696.9650269,-0.0005056726513,696.9650269,-0.0005081548006,696.9650269,0.0004223018477,
695.9575195,0.001972791273,695.9575195,0.001914468594,695.9575195,-0.0003025016049,695.9575195,-4.405568325E-5,695.9575195,0.0001336180285,
694.949646,0.001702149748,694.949646,0.00165046344,694.949646,-0.0004945027758,694.949646,-0.0005108437617,694.949646,-7.231937343E-5,
693.9414673,0.001928534941,693.9414673,0.002005141228,693.9414673,-0.0006487353239,693.9414673,-0.0005451268516,693.9414673,0.0001154408747,
692.9329834,0.002184930257,692.9329834,0.002208683873,692.9329834,-6.782070614E-6,692.9329834,-3.530702452E-5,692.9329834,0.0003367257596,
692.0682983,0.001856595627,692.0682983,0.001951598562,692.0682983,-0.0006345707225,692.0682983,-0.0004174952337,692.0682983,3.015820039E-5,
691.0591431,0.002039548242,691.0591431,0.002008157782,691.0591431,-0.0004202365235,691.0591431,-0.000286877068,691.0591431,3.445559196E-5,
690.0497437,0.002113754861,690.0497437,0.002263064962,690.0497437,-0.0006448581698,690.0497437,-0.0002662332263,690.0497437,0.0001568973094,
689.039978,0.001926688827,689.039978,0.001793453819,689.039978,-0.001038389863,689.039978,-0.0004316151899,689.039978,3.567232852E-5,
688.0298462,0.001995155122,688.0298462,0.002074270044,688.0298462,-0.0006643985398,688.0298462,-0.0003613213194,688.0298462,9.370821317E-6,
687.0194702,0.002234910848,687.0194702,0.002591107972,687.0194702,-0.0003749775351,687.0194702,-0.0001485600515,687.0194702,0.0005733383005,
686.008728,0.00221929932,686.008728,0.002135293558,686.008728,-0.0008504526922,686.008728,-0.0005410420126,686.008728,1.571306711E-5,
684.9976196,0.002173170913,684.9976196,0.002315761056,684.9976196,-0.0003967541561,684.9976196,-0.0001544599945,684.9976196,0.0004207212769,
683.9862671,0.001944057876,683.9862671,0.001822852995,683.9862671,-0.0007459620829,683.9862671,-0.000592332799,683.9862671,-0.0002461575496,
682.9745483,0.001845625113,682.9745483,0.002072553383,682.9745483,-0.0009441215079,682.9745483,-0.0004553025356,682.9745483,-0.0001416249288,
681.9625244,0.002164013451,681.9625244,0.002431246452,681.9625244,-0.0004274775274,681.9625244,-0.0004440796329,681.9625244,0.0003450416843,
680.9501343,0.002222447656,680.9501343,0.002233115491,680.9501343,-0.0003066921781,680.9501343,-0.0003572864516,680.9501343,-3.582470163E-5,
679.9375,0.002355085686,679.9375,0.002259421861,679.9375,-0.0004379767634,679.9375,-0.0001447302202,679.9375,5.816966586E-5,
679.0692139,0.001553655835,679.0692139,0.00194192573,679.0692139,-0.0009659212665,679.0692139,-0.0005740300985,679.0692139,-7.21123215E-5,
678.0559082,0.002227053046,678.0559082,0.002169164363,678.0559082,-0.0004346666683,678.0559082,-0.0001639307739,678.0559082,0.000314291683,
677.0423584,0.001983660972,677.0423584,0.002282320987,677.0423584,-0.0006838862319,677.0423584,-0.0005101715215,677.0423584,0.000335896766,
676.0284424,0.002053072443,676.0284424,0.00250481721,676.0284424,-0.000500759983,676.0284424,-0.0003070025996,676.0284424,0.0001986684656,
675.0142212,0.002352977404,675.0142212,0.002072891453,675.0142212,-0.0004677145917,675.0142212,-0.0005489014438,675.0142212,0.0003202239168,
673.9996338,0.002056869678,673.9996338,0.002096769167,673.9996338,-0.0006328130839,673.9996338,-0.0007034764858,673.9996338,0.0003948628146,
672.9848022,0.001727774274,672.9848022,0.001880617463,672.9848022,-0.0008883256814,672.9848022,-0.000633433403,672.9848022,4.768457075E-5,
671.9696045,0.002163284924,671.9696045,0.002160397358,671.9696045,-0.0004923825036,671.9696045,-0.0005973994848,671.9696045,0.0002757472103,
670.9541016,0.00200987421,,,670.9541016,-0.0005467814626,670.9541016,-0.0003022946476,670.9541016,0.0002187138452,
669.9382935,0.002009328222,,,669.9382935,-0.0008065304137,669.9382935,-0.0007385713398,669.9382935,0.0001552141184,
669.0673218,0.002371534705,,,669.0673218,-0.0003807192261,669.0673218,-3.815424134E-5,669.0673218,0.0004954033648,
668.0509033,0.002029405208,,,668.0509033,-0.000883675646,668.0509033,-0.0005221166648,668.0509033,0.0002133786766,
667.0341797,0.002047766699,,,667.0341797,-0.000804411713,667.0341797,-0.0002446052677,667.0341797,-0.0002238041779,
666.0171509,0.002351806266,,,666.0171509,-0.0002833588806,666.0171509,-0.00042644309,666.0171509,0.000438729825,
664.9998169,0.002078015357,,,664.9998169,-0.0004871594429,664.9998169,-0.0002283577342,664.9998169,0.0002801506198,
663.9821167,0.002414144343,,,663.9821167,-0.0007475125603,663.9821167,-0.0003779777035,663.9821167,0.0001410237601,
662.9641724,0.002193385735,,,662.9641724,-0.0003791156923,662.9641724,-0.0006165283266,662.9641724,0.0002157613635,
661.9458618,0.002419454511,,,661.9458618,-0.0005610522931,661.9458618,-0.0003661320661,661.9458618,0.0001932040614,
660.9272461,0.002050601644,,,660.9272461,-0.0006549386308,660.9272461,-0.0004422177444,660.9272461,0.0001042812,
660.0539551,0.002205769997,,,660.0539551,-0.0005964688607,660.0539551,-0.0005358195049,660.0539551,-0.0001532696624,
659.034729,0.002547413576,,,659.034729,-0.0003174012818,659.034729,-0.000284911046,659.034729,0.0002596880076,
658.0152588,0.002345924266,,,658.0152588,-0.0005068620085,658.0152588,-0.0005238230806,658.0152588,0.0002469964675,
656.9954224,0.002109644935,,,656.9954224,-0.0001610843901,656.9954224,-0.000571031298,656.9954224,0.0003610262938,
655.9753418,0.00232192874,,,655.9753418,-0.0004670422932,655.9753418,-0.0003969093377,655.9753418,0.0002084061562,
654.954895,0.002292001387,,,654.954895,-0.0004315634433,654.954895,-0.0004134608898,654.954895,0.0003137736057,
653.9341431,0.002167889616,,,653.9341431,-0.0005440409877,653.9341431,-0.0002183708857,653.9341431,0.0003593941219,
653.059021,0.002061993582,,,653.059021,-0.0005604318576,653.059021,-0.0008660053136,653.059021,-7.475224265E-5,
652.0377197,0.001988783944,,,652.0377197,-0.000734591682,652.0377197,-0.0003362838179,652.0377197,4.118652942E-5,
651.0161133,0.002212404506,,,651.0161133,-0.0003705806739,651.0161133,-0.0002978970879,651.0161133,0.0002760839416,
649.9941406,0.002175460337,,,649.9941406,-0.0005839570658,649.9941406,-0.0003724428825,649.9941406,0.0002002482361,
648.9719238,0.002456211252,,,648.9719238,-0.0001217505269,648.9719238,-0.0001470591669,648.9719238,0.0004353094555,
647.9494019,0.002408391563,,,647.9494019,-0.0004010472912,647.9494019,-0.0006078946171,647.9494019,0.0003135922598,
647.0726929,0.001999133965,,,647.0726929,-0.0005634307745,647.0726929,-0.0005211341777,647.0726929,6.833949556E-6,
646.0496216,0.002528510289,,,646.0496216,-0.0004553025356,646.0496216,-0.0003096410946,646.0496216,0.0002069299517,
645.0261841,0.002722842619,,,645.0261841,-0.0002792715677,645.0261841,7.506937436E-7,645.0261841,0.000384006853,
644.0025024,0.00254452345,,,644.0025024,-0.0004119092191,644.0025024,-7.294053648E-5,644.0025024,0.000295822043,
642.9784546,0.002362763509,,,642.9784546,-0.0003800984996,642.9784546,-0.0001928594138,642.9784546,0.0001954312611,
641.9541626,0.002784947399,,,641.9541626,-0.0001548222644,641.9541626,-4.514278407E-5,641.9541626,0.0002351600124,
640.9295044,0.002445954364,,,640.9295044,-0.00029117128,640.9295044,-0.0005865421845,640.9295044,0.0001611441548,
640.0510254,0.002718310338,,,640.0510254,-0.000178731716,640.0510254,-0.0001467486436,640.0510254,0.000417896983,
639.0258179,0.002528119599,,,639.0258179,-0.0005328204134,639.0258179,-0.0001421424677,639.0258179,0.0002179109724,
638.0003662,0.002381191123,,,638.0003662,-0.0005598114221,638.0003662,-0.0002664401836,638.0003662,8.92639946E-5,
636.9745483,0.002559651854,,,636.9745483,-0.0003008977801,636.9745483,-0.0004103575193,636.9745483,0.0001493100426,
635.9484863,0.00262441556,,,635.9484863,-0.0001390371617,635.9484863,-0.0002421216195,635.9484863,0.0003400417336,
635.0687256,0.002485290868,,,635.0687256,-0.0005337511539,635.0687256,-0.0001274438109,635.0687256,0.0002887762967,
634.0421143,0.002901600208,,,634.0421143,-8.795161557E-5,634.0421143,-0.0001788869704,634.0421143,0.0004569464363,
633.0151367,0.00320863747,,,633.0151367,0.0002139484423,633.0151367,0.0001762156462,633.0151367,0.0009234534809,
631.987915,0.002575379563,,,631.987915,-8.008380246E-5,631.987915,-0.0001940496295,631.987915,0.000303644978,
630.9603882,0.002834137296,,,630.9603882,-6.983472849E-5,630.9603882,-0.0003117622109,630.9603882,0.0003601195349,
629.9325562,0.00271703396,,,629.9325562,-0.0001382608316,629.9325562,-9.695801418E-5,629.9325562,0.0001549551671,
629.0512695,0.002698461758,,,629.0512695,-0.0003939610033,629.0512695,-0.0001533731556,629.0512695,0.0003290317254,
628.0228882,0.002701118588,,,628.0228882,-0.0002861527319,628.0228882,-0.0003236610501,628.0228882,0.0005758525804,
626.9942017,0.002871606732,,,626.9942017,-6.67852828E-6,626.9942017,2.707756721E-5,626.9942017,0.000553691294,
625.96521,0.002604597481,,,625.96521,-4.436628296E-5,625.96521,-0.0001697270054,625.96521,0.00031149399,
624.9359741,0.002929927781,,,624.9359741,0.0001148971278,624.9359741,3.893424218E-5,624.9359741,0.0004644872679,
624.0534668,0.002764991717,,,624.0534668,0.0001716578845,624.0534668,-9.038439748E-5,624.0534668,0.0007533911848,
623.0236816,0.002974416362,,,623.0236816,0.0002160203439,623.0236816,8.789175627E-5,623.0236816,0.0004442750651,
621.9935303,0.003112055361,,,621.9935303,0.0001204382206,621.9935303,3.349773397E-5,621.9935303,0.0004388852976,
620.9631348,0.002793675056,,,620.9631348,-8.749369044E-6,620.9631348,-0.0001944118703,620.9631348,0.0003890850348,
619.9324341,0.002903736895,,,619.9324341,-7.801329775E-5,619.9324341,-7.563221152E-5,619.9324341,0.0005075578811,
619.0487061,0.003026416991,,,619.0487061,8.877205983E-5,619.0487061,0.000153297864,619.0487061,0.0006243780954,
618.0174561,0.002944287611,,,618.0174561,0.000185124125,618.0174561,-8.904681636E-6,618.0174561,0.0002170563093,
616.9859009,0.003100245027,,,616.9859009,0.0003452748351,616.9859009,0.0001252025831,616.9859009,0.0006326736184,
615.9541016,0.003044951009,,,615.9541016,-4.193324276E-5,615.9541016,-4.747227285E-5,615.9541016,0.0006640165229,
615.069458,0.003153016791,,,615.069458,0.0003002774611,615.069458,3.598298645E-5,615.069458,0.0007755886181,
614.0370483,0.002958022524,,,614.0370483,0.000119169461,614.0370483,0.0001408684038,614.0370483,0.0005896164803,
613.0043945,0.003246060805,,,613.0043945,0.0002741412609,613.0043945,0.0001791160612,613.0043945,0.0006986544468,
611.9714355,0.003299841424,,,611.9714355,0.0001996266947,611.9714355,7.217607345E-5,611.9714355,0.000720278651,
610.9382324,0.003222537227,,,610.9382324,0.0001948097051,610.9382324,-3.375398956E-5,610.9382324,0.0005555315292,
610.0523682,0.003392630024,,,610.0523682,0.0002551811631,610.0523682,0.0004344543559,610.0523682,0.0006093428819,
609.0185547,0.003359967843,,,609.0185547,0.0002390968293,609.0185547,0.0002227282093,609.0185547,0.0004856333253,
607.9844971,0.00351153384,,,607.9844971,0.0004839229514,607.9844971,0.0002250850375,607.9844971,0.0008674503188,
606.9501343,0.003399074078,,,606.9501343,0.0002191023232,606.9501343,4.188551611E-5,606.9501343,0.000723156787,
606.0633545,0.00341389305,,,606.0633545,0.0003145248338,606.0633545,0.0001898633054,606.0633545,0.0004527744313,
605.0284424,0.003338994458,,,605.0284424,0.0003746020375,605.0284424,0.0006830721977,605.0284424,0.0006876612897,
603.9932861,0.003469338408,,,603.9932861,0.000511730439,603.9932861,0.0005267104134,603.9932861,0.0006919911248,
602.9578247,0.00332115218,,,602.9578247,0.0003486686037,602.9578247,0.0004773665278,602.9578247,0.0006024994655,
602.0700684,0.00358395651,,,602.0700684,0.0005221749307,602.0700684,0.0005782372318,602.0700684,0.0005970040802,
601.0341187,0.003374889959,,,601.0341187,0.0003295498318,601.0341187,0.0003945778008,601.0341187,0.0007117740461,
599.9978638,0.003757089376,,,599.9978638,0.0006975914002,599.9978638,0.0006421358557,599.9978638,0.0007773779216,
598.9613037,0.003886383492,,,598.9613037,0.0006580536719,598.9613037,0.0006357067032,598.9613037,0.000792678271,
598.0725708,0.003680199618,,,598.0725708,0.0005815550685,598.0725708,0.0004914383171,598.0725708,0.0008059563115,
597.0355225,0.003524268977,,,597.0355225,0.0006601017667,597.0355225,0.0008347440744,597.0355225,0.0008167968481,
595.9981689,0.003865515348,,,595.9981689,0.000615590252,595.9981689,0.0005574236275,595.9981689,0.0009329479653,
594.9605103,0.003811481642,,,594.9605103,0.0006816462846,594.9605103,0.0006562129711,594.9605103,0.0007627523155,
594.0709229,0.003807538422,,,594.0709229,0.0005871280446,594.0709229,0.0006617350737,594.0709229,0.0007848464884,
593.0327759,0.003876066767,,,593.0327759,0.0004920861684,593.0327759,0.0005197905703,593.0327759,0.0008008473087,
591.9943237,0.003979611211,,,591.9943237,0.0005749453558,591.9943237,0.0006635757745,591.9943237,0.0008890310419,
590.9555664,0.004131132271,,,590.9555664,0.0008980578859,590.9555664,0.0008355221362,590.9555664,0.0009743787814,
590.0650635,0.004097395111,,,590.0650635,0.0009309245506,590.0650635,0.0009381363634,590.0650635,0.0009449591162,
589.0258179,0.004006545991,,,589.0258179,0.0009560885374,589.0258179,0.0007399850874,589.0258179,0.0006850426435,
587.9863281,0.004300849512,,,587.9863281,0.001040152041,587.9863281,0.00104508223,587.9863281,0.001031563384,
586.9465332,0.004389903508,,,586.9465332,0.001180553692,586.9465332,0.001079179696,586.9465332,0.001136455918,
586.0550537,0.004209356382,,,586.0550537,0.0008675540448,586.0550537,0.0007010916597,586.0550537,0.0008976947283,
585.0147705,0.004287594464,,,585.0147705,0.001161631779,585.0147705,0.0009529234958,585.0147705,0.0009933961555,
583.9741821,0.004432345275,,,583.9741821,0.0010765068,583.9741821,0.001086679404,583.9741821,0.001173285884,
582.9332886,0.004348380957,,,582.9332886,0.0009997009765,582.9332886,0.0009474236867,582.9332886,0.0008503576973,
582.0409546,0.004361715633,,,582.0409546,0.001111021964,582.0409546,0.001003904152,582.0409546,0.0009448553901,
580.9995728,0.004707755521,,,580.9995728,0.001455882913,580.9995728,0.001181903412,580.9995728,0.001120209112,
579.9579468,0.004667642061,,,579.9579468,0.00133530749,579.9579468,0.001097838394,579.9579468,0.001033950481,
579.0648804,0.004709011875,,,579.0648804,0.001121714362,579.0648804,0.001105753705,579.0648804,0.001128358417,
578.0227051,0.004723614082,,,578.0227051,0.001321779564,578.0227051,0.00116004853,578.0227051,0.00119929458,
576.9802856,0.00477943616,,,576.9802856,0.001349069527,576.9802856,0.001219905331,576.9802856,0.001090338454,
575.9376221,0.004605424125,,,575.9376221,0.001249577268,575.9376221,0.001139492495,575.9376221,0.001142399386,
575.0436401,0.004867829382,,,575.0436401,0.001486869645,575.0436401,0.00130155345,575.0436401,0.001170456759,
574.0004272,0.004977449309,,,574.0004272,0.00153565302,574.0004272,0.001254172297,574.0004272,0.00117725716,
572.9569702,0.004773390479,,,572.9569702,0.001416224055,572.9569702,0.00118320121,572.9569702,0.001237973105,
572.0623779,0.005115462933,,,572.0623779,0.00165675173,572.0623779,0.001465441077,572.0623779,0.001344291726,
571.0183716,0.005141551606,,,571.0183716,0.001635548542,571.0183716,0.001430741861,571.0183716,0.001301371725,
569.9741821,0.005131257232,,,569.9741821,0.001641265,569.9741821,0.001503571752,569.9741821,0.001385528012,
568.9296265,0.005216525868,,,568.9296265,0.001798756537,568.9296265,0.00137392024,568.9296265,0.00126344047,
568.0341187,0.005301889963,,,568.0341187,0.001868294436,568.0341187,0.001580544747,568.0341187,0.00129277783,
566.9891357,0.005512174685,,,566.9891357,0.002099474194,566.9891357,0.001784252352,566.9891357,0.001607305254,
565.9438477,0.005570458248,,,565.9438477,0.001965952339,565.9438477,0.001619335031,565.9438477,0.001551577589,
565.0477295,0.005366461352,,,565.0477295,0.001975001534,565.0477295,0.001549213543,565.0477295,0.001471934491,
564.0019531,0.005564243998,,,564.0019531,0.002262128051,564.0019531,0.001617957954,564.0019531,0.001541186241,
562.9558716,0.00562730711,,,562.9558716,0.002183785429,562.9558716,0.001728554023,562.9558716,0.001567087136,
562.059082,0.005871150177,,,562.059082,0.002424842911,562.059082,0.00180907594,562.059082,0.001609175932,
561.0125732,0.005822821986,,,561.0125732,0.00223907386,561.0125732,0.001771880081,561.0125732,0.001477025333,
559.9657593,0.005953598768,,,559.9657593,0.002481307602,559.9657593,0.001840399927,559.9657593,0.001666444237,
559.0682983,0.006008319091,,,559.0682983,0.002440826036,559.0682983,0.001851344365,559.0682983,0.001692092628,
558.0209961,0.006032965612,,,558.0209961,0.002523797564,558.0209961,0.00198704144,558.0209961,0.001676630694,
556.9734497,0.006195944268,,,556.9734497,0.002583061345,556.9734497,0.002372003393,556.9734497,0.001882047392,
555.9256592,0.006346979644,,,555.9256592,0.002902486129,555.9256592,0.002294291509,555.9256592,0.001981892623,
555.0273438,0.006320083048,,,555.0273438,0.002770332154,555.0273438,0.002308083931,555.0273438,0.001913896529,
553.9790039,0.006465328857,,,553.9790039,0.002868427662,553.9790039,0.002275607316,553.9790039,0.00197476754,
552.930481,0.006510680541,,,552.930481,0.00293785031,552.930481,0.002339703962,552.930481,0.001865954604,
552.0314941,0.006657488178,,,552.0314941,0.003064685035,552.0314941,0.002506769728,552.0314941,0.001996325329,
550.9824219,0.00691871671,,,550.9824219,0.003282157239,550.9824219,0.002529577818,550.9824219,0.002176631009,
549.9331665,0.007053691428,,,549.9331665,0.003267942695,549.9331665,0.002559131011,549.9331665,0.002137140371,
549.0335083,0.007217238192,,,549.0335083,0.003512786468,549.0335083,0.002756238449,549.0335083,0.002162452554,
547.9837646,0.007469533477,,,547.9837646,0.003619533032,547.9837646,0.002856076462,547.9837646,0.002311076736,
546.9337158,0.007642878685,,,546.9337158,0.003914566711,546.9337158,0.002905378817,546.9337158,0.002426638966,
546.0334473,0.007885852829,,,546.0334473,0.004148093052,546.0334473,0.00307889306,546.0334473,0.002597644227,
544.9829102,0.008168526925,,,544.9829102,0.004367546644,544.9829102,0.003400091548,544.9829102,0.002599493135,
543.9321289,0.008550218306,,,543.9321289,0.004662591964,543.9321289,0.00346657238,543.9321289,0.00274318736,
543.03125,0.008899374865,,,543.03125,0.005055537913,543.03125,0.003718812484,543.03125,0.002855633618,
541.9800415,0.009226363152,,,541.9800415,0.005376105662,541.9800415,0.004229221959,541.9800415,0.003284165636,
540.9285278,0.009700406343,,,540.9285278,0.005643435288,540.9285278,0.004347230308,540.9285278,0.003299111035,
540.0269775,0.01029558294,,,540.0269775,0.006244497839,540.0269775,0.004864688031,540.0269775,0.003616165835,
538.9750366,0.01114997361,,,538.9750366,0.006940442603,538.9750366,0.005292089656,538.9750366,0.003837910015,
538.0731201,0.01198782027,,,538.0731201,0.007534296252,538.0731201,0.005667090416,538.0731201,0.004129956011,
537.0206299,0.01280177105,,,537.0206299,0.008417601697,537.0206299,0.006287462544,537.0206299,0.004691113252,
535.9679565,0.01361182798,,,535.9679565,0.009146146476,535.9679565,0.006843395531,535.9679565,0.004986640066,
535.0654297,0.01535991486,,,535.0654297,0.01067694742,535.0654297,0.007780134678,535.0654297,0.005666250829,
534.012207,0.01683068089,,,534.012207,0.01179302204,534.012207,0.00893036928,534.012207,0.006256131455,
532.9588013,0.01895147748,,,532.9588013,0.01372626983,532.9588013,0.01042341813,532.9588013,0.007356991991,
532.0556641,0.02125467174,,,532.0556641,0.01561813988,532.0556641,0.01175602525,532.0556641,0.00819152873,
531.00177,0.02363795415,,,531.00177,0.01778923534,531.00177,0.01330797281,531.00177,0.009294932708,
529.9476318,0.02726041712,,,529.9476318,0.02075851336,529.9476318,0.01537855342,529.9476318,0.01084008534,
529.0438232,0.03034449555,,,529.0438232,0.02356492355,529.0438232,0.01776186377,529.0438232,0.0122321723,
527.9892578,0.0354151316,,,527.9892578,0.0279461164,527.9892578,0.02106985636,527.9892578,0.01430593804,
526.9343872,0.04132223129,,,526.9343872,0.03314266354,526.9343872,0.02480569854,526.9343872,0.01691009663,
526.0300293,0.04617236555,,,526.0300293,0.03707840666,526.0300293,0.02802151628,526.0300293,0.01891797595,
524.9746704,0.05313980952,,,524.9746704,0.04366323724,524.9746704,0.03287149221,524.9746704,0.02212650515,
524.0699463,0.0614974983,,,524.0699463,0.05031764507,524.0699463,0.03805492818,524.0699463,0.02549115382,
523.0141602,0.07340322435,,,523.0141602,0.06145705655,523.0141602,0.04614616558,523.0141602,0.03071482293,
521.9581299,0.08763961494,,,521.9581299,0.07340548933,521.9581299,0.05496680737,521.9581299,0.036631383,
521.0527344,0.1021549553,,,521.0527344,0.08575385064,521.0527344,0.06465815008,521.0527344,0.04307958856,
519.9962158,0.1200548038,,,519.9962158,0.1014755145,519.9962158,0.0765356645,519.9962158,0.05086352304,
518.9395142,0.1415780783,,,518.9395142,0.1208059713,518.9395142,0.09110613912,518.9395142,0.05990696326,
518.0335693,0.16418311,,,518.0335693,0.1412061006,518.0335693,0.1061343774,518.0335693,0.07045256346,
516.9763794,0.198344484,,,516.9763794,0.1712457687,516.9763794,0.1285520196,516.9763794,0.08485220373,
516.0700073,0.2320970148,,,516.0700073,0.1997656226,516.0700073,0.1504210383,516.0700073,0.09975781292,
515.0123291,0.2783290446,,,515.0123291,0.2399823219,515.0123291,0.1799027473,515.0123291,0.119041577,
513.9544678,0.3279129565,,,513.9544678,0.2845516205,513.9544678,0.2132941037,513.9544678,0.1411582232,
513.0475464,0.3744322956,,,513.0475464,0.3246249855,513.0475464,0.2434069365,513.0475464,0.1614161879,
511.9891663,0.4433025122,,,511.9891663,0.3860461116,511.9891663,0.2887792587,511.9891663,0.1924894005,
510.930603,0.5254871249,,,510.930603,0.4593744874,510.930603,0.344658494,510.930603,0.228448689,
510.0230713,0.6098989248,,,510.0230713,0.5306631923,510.0230713,0.399956286,510.0230713,0.264762193,
508.9640503,0.7162277699,,,508.9640503,0.6289396882,508.9640503,0.4703128934,508.9640503,0.3119428754,
508.0561218,0.8056498766,,,508.0561218,0.7044816017,508.0561218,0.5286710858,508.0561218,0.34950912,
506.9966431,0.9169805646,,,506.9966431,0.8048191071,506.9966431,0.60590446,506.9966431,0.4013102949,
505.9369202,1.061062217,,,505.9369202,0.9339702725,505.9369202,0.7021449208,505.9369202,0.4658556581,
505.0284119,1.20388329,,,505.0284119,1.061980963,505.0284119,0.7982156277,505.0284119,0.5309211016,
503.9682617,1.373461604,,,503.9682617,1.205498338,503.9682617,0.9078142047,503.9682617,0.6014133096,
503.0593872,1.50570786,,,503.0593872,1.327523351,503.0593872,0.9985934496,503.0593872,0.6649794579,
501.9987793,1.655825019,,,501.9987793,1.464871526,501.9987793,1.101631641,501.9987793,0.7327585816,
500.9379578,1.799584508,,,500.9379578,1.600816727,500.9379578,1.207419991,500.9379578,0.8040020466,
500.0284729,1.971675754,,,500.0284729,1.748710036,500.0284729,1.3222363,500.0284729,0.8840530515,
498.9672241,2.124471426,,,498.9672241,1.889851928,498.9672241,1.438809037,498.9672241,0.9591525197,
498.057373,2.244484663,,,498.057373,2.002871513,498.057373,1.5284307,498.057373,1.022966146,
496.9956665,2.350217819,,,496.9956665,2.106604815,496.9956665,1.613587379,496.9956665,1.076191306,
495.9337158,2.436412811,,,495.9337158,2.201406479,495.9337158,1.693894982,495.9337158,1.13463223,
495.0232849,2.521691799,,,495.0232849,2.283526421,495.0232849,1.770387053,495.0232849,1.186936378,
493.960907,2.586627245,,,493.960907,2.362819195,493.960907,1.842835784,493.960907,1.238244295,
493.0501404,2.660450697,,,493.0501404,2.425461054,493.0501404,1.891454577,493.0501404,1.26939106,
491.9873047,2.702614069,,,491.9873047,2.463461399,491.9873047,1.919583797,491.9873047,1.288437724,
490.9242859,2.68397522,,,490.9242859,2.470085382,490.9242859,1.927992225,490.9242859,1.298681736,
490.0129089,2.698413849,,,490.0129089,2.461336613,490.0129089,1.932917953,490.0129089,1.299808741,
488.9494324,2.672287703,,,488.9494324,2.456284761,488.9494324,1.918694139,488.9494324,1.288722038,
488.0377197,2.659793139,,,488.0377197,2.438064337,488.0377197,1.896119952,488.0377197,1.272167325,
486.9738159,2.619510174,,,486.9738159,2.391926289,486.9738159,1.857970476,486.9738159,1.244375348,
486.0617371,2.580311775,,,486.0617371,2.349414349,486.0617371,1.817215443,486.0617371,1.214743137,
484.997406,2.516683817,,,484.997406,2.282134771,484.997406,1.755547166,484.997406,1.172587037,
483.9328613,2.460413694,,,483.9328613,2.226127386,483.9328613,1.704101324,483.9328613,1.137789726,
483.0202026,2.37458396,,,483.0202026,2.137917519,483.0202026,1.635436773,483.0202026,1.091005564,
481.9552002,2.280295849,,,481.9552002,2.041333914,481.9552002,1.557468772,481.9552002,1.039933562,
481.0422058,2.177698851,,,481.0422058,1.952448845,481.0422058,1.486569643,481.0422058,0.9899170399,
479.9768066,2.083864212,,,479.9768066,1.862720728,479.9768066,1.414723635,479.9768066,0.9412732124,
479.0634155,2.011193991,,,479.0634155,1.79147768,479.0634155,1.357224226,479.0634155,0.9029823542,
477.9975891,1.90286243,,,477.9975891,1.697055817,477.9975891,1.282973051,477.9975891,0.8521086574,
476.9315491,1.80532217,,,476.9315491,1.603497267,476.9315491,1.211681366,476.9315491,0.8054870963,
476.0176086,1.725822926,,,476.0176086,1.529726386,476.0176086,1.152823567,476.0176086,0.7667441368,
474.9511719,1.63344419,,,474.9511719,1.449970603,474.9511719,1.089618206,474.9511719,0.7250860929,
474.0368652,1.579675198,,,474.0368652,1.397735357,474.0368652,1.051296592,474.0368652,0.6986290216,
472.9700012,1.512127519,,,472.9700012,1.339489579,472.9700012,1.007866621,472.9700012,0.6678452492,
472.0553589,1.447289586,,,472.0553589,1.279417992,472.0553589,0.9623698592,472.0553589,0.638138473,
470.9880371,1.387615442,,,470.9880371,1.228421211,470.9880371,0.9230661392,470.9880371,0.6125015616,
470.0730591,1.341613293,,,470.0730591,1.186131954,470.0730591,0.8915430307,470.0730591,0.5920562744,
469.0053406,1.297371387,,,469.0053406,1.145443201,469.0053406,0.8609194756,469.0053406,0.5709192753,
467.9374084,1.255046129,,,467.9374084,1.109393477,467.9374084,0.8325084448,467.9374084,0.5517110825,
467.0218811,1.223760486,,,467.0218811,1.080078959,467.0218811,0.8109077215,467.0218811,0.5380603671,
465.9535522,1.183437586,,,465.9535522,1.044697046,465.9535522,0.784653306,465.9535522,0.5202278495,
465.0376587,1.153532028,,,465.0376587,1.017897606,465.0376587,0.7640067935,465.0376587,0.5064970255,
463.9689026,1.121660471,,,463.9689026,0.9894979596,463.9689026,0.7428530455,463.9689026,0.4922549725,
463.0526733,1.102650046,,,463.0526733,0.9734041691,463.0526733,0.7306727171,463.0526733,0.4845288992,
461.9835205,1.07306242,,,461.9835205,0.9467805028,461.9835205,0.7104213834,461.9835205,0.4711182714,
461.066925,1.03977704,,,461.066925,0.9176974297,461.066925,0.6884034276,461.066925,0.456294477,
459.9973755,1.008559585,,,459.9973755,0.890550673,459.9973755,0.6682024002,459.9973755,0.4426051378,
458.9276123,0.9742678404,,,458.9276123,0.8602266908,458.9276123,0.6450061798,458.9276123,0.4276097119,
458.0104675,0.9448879957,,,458.0104675,0.8329339027,458.0104675,0.6245348454,458.0104675,0.4147669375,
456.9403076,0.9077446461,,,456.9403076,0.8011059165,456.9403076,0.6007751226,456.9403076,0.3983042836,
456.0228577,0.8703583479,,,456.0228577,0.7691917419,456.0228577,0.5766713023,456.0228577,0.3822285831,
454.9522705,0.8261309266,,,454.9522705,0.7288078666,454.9522705,0.5468360186,454.9522705,0.3628198802,
454.0344543,0.7883825302,,,454.0344543,0.6958529949,454.0344543,0.5220741034,454.0344543,0.3462351561,
452.963501,0.7469556928,,,452.963501,0.6585831046,452.963501,0.493943423,452.963501,0.3272768557,
452.0453491,0.7172904611,,,452.0453491,0.632404685,452.0453491,0.4740047157,452.0453491,0.3141103089,
450.9739685,0.6730309129,,,450.9739685,0.5937701464,450.9739685,0.4448761642,450.9739685,0.2950016558,
450.055481,0.633197248,,,450.055481,0.5582276583,450.055481,0.4180939794,450.055481,0.2776395977,
448.9837341,0.5944280028,,,448.9837341,0.5226893425,448.9837341,0.3922412992,448.9837341,0.2603136301,
448.0649109,0.5609639287,,,448.0649109,0.4937667549,448.0649109,0.3698992133,448.0649109,0.2457033396,
446.9927368,0.5277855992,,,446.9927368,0.4645976722,446.9927368,0.348480165,446.9927368,0.2312928438,
446.0735779,0.5023603439,,,446.0735779,0.4408441782,446.0735779,0.330889374,446.0735779,0.2196647525,
445.0010376,0.4690369666,,,445.0010376,0.4119982421,445.0010376,0.3086211085,445.0010376,0.2049462646,
443.9282837,0.4382394552,,,443.9282837,0.3850897551,443.9282837,0.2885563076,443.9282837,0.1917348355,
443.008606,0.4138294756,,,443.008606,0.3637920022,443.008606,0.2723852396,443.008606,0.1809149086,
441.9354553,0.3861380517,,,441.9354553,0.3391192257,441.9354553,0.2537089586,441.9354553,0.1685593128,
441.0154419,0.3675940335,,,441.0154419,0.3229258358,441.0154419,0.2421701252,441.0154419,0.1605601311,
439.941925,0.3470934033,,,439.941925,0.3043054044,439.941925,0.2283688784,439.941925,0.1513223052,
439.0215759,0.327015698,,,439.0215759,0.2874076068,439.0215759,0.2156077772,439.0215759,0.1429800689,
437.9476624,0.3092237711,,,437.9476624,0.2706474364,437.9476624,0.2027479112,437.9476624,0.1348618567,
437.0270081,0.2934808433,,,437.0270081,0.2572705448,437.0270081,0.1926408261,437.0270081,0.1279514879,
435.9526978,0.2785800099,,,435.9526978,0.2434106469,435.9526978,0.182740882,435.9526978,0.1215212196,
435.0317078,0.2673476338,,,435.0317078,0.2338785678,435.0317078,0.1753985137,435.0317078,0.1164423674,
433.9570313,0.2537883222,,,433.9570313,0.2217784077,433.9570313,0.1663195789,433.9570313,0.1104289442,
433.0357056,0.2414452434,,,433.0357056,0.2110467702,433.0357056,0.1583562791,433.0357056,0.1050679758,
431.9606323,0.2287890911,,,431.9606323,0.1996099651,431.9606323,0.1496253163,431.9606323,0.09935627878,
431.0390015,0.21846129,,,431.0390015,0.1905899793,431.0390015,0.1427806765,431.0390015,0.09507220984,
429.9635315,0.20787175,,,429.9635315,0.1813298762,429.9635315,0.1356247365,429.9635315,0.09031651914,
429.0415649,0.1988706887,,,429.0415649,0.1734327376,429.0415649,0.1297602057,429.0415649,0.08632722497,
427.9657593,0.1872849464,,,427.9657593,0.1629782915,427.9657593,0.1220186278,427.9657593,0.08114537597,
427.043457,0.1776455492,,,427.043457,0.154393971,427.043457,0.1157086641,427.043457,0.07690622658,
425.9672852,0.1674260348,,,425.9672852,0.1455556303,425.9672852,0.1089097559,425.9672852,0.07250376791,
425.0446777,0.1603927463,,,425.0446777,0.1390299946,425.0446777,0.1041169167,425.0446777,0.06950225681,
423.9681091,0.151912719,,,423.9681091,0.1315875053,423.9681091,0.09867119789,423.9681091,0.06580818444,
423.045166,0.1433573961,,,423.045166,0.1240964979,423.045166,0.09306421876,423.045166,0.06194368005,
421.9682312,0.1345135272,,,421.9682312,0.1163787395,421.9682312,0.0873792991,421.9682312,0.05836767703,
421.0449829,0.1278259307,,,421.0449829,0.1103571504,421.0449829,0.08280111849,421.0449829,0.05525907502,
419.9676819,0.1213422343,,,419.9676819,0.1046474054,419.9676819,0.07839997858,419.9676819,0.05235557258,
419.0440979,0.1166923568,,,419.0440979,0.1005213484,419.0440979,0.07521538436,419.0440979,0.05023769289,
417.9664307,0.1103626564,,,417.9664307,0.09499295801,417.9664307,0.07095970958,417.9664307,0.04745635018,
417.042572,0.1048638374,,,417.042572,0.09004315734,417.042572,0.06728322804,417.042572,0.04503019899,
415.9645081,0.09864702821,,,415.9645081,0.08498238772,415.9645081,0.06345191598,415.9645081,0.04245230556,
415.0403137,0.09562808275,,,415.0403137,0.08189644665,415.0403137,0.06125077605,415.0403137,0.04078124091,
413.9619141,0.09103236347,,,413.9619141,0.07786084712,413.9619141,0.05838349089,413.9619141,0.03880499676,
413.0374146,0.08861383051,,,413.0374146,0.07565170527,413.0374146,0.05663822591,413.0374146,0.03789646551,
411.9586487,0.08476931602,,,411.9586487,0.07230981439,411.9586487,0.05400141329,411.9586487,0.03624837846,
411.033844,0.08200567216,,,411.033844,0.06965751946,411.033844,0.0519602038,411.033844,0.03479640186,
409.9547119,0.07986073196,,,409.9547119,0.06787516922,409.9547119,0.0508582294,409.9547119,0.0341508016,
409.0296021,0.07793663442,,,409.0296021,0.06623964757,409.0296021,0.04960527644,409.0296021,0.03313347325,
407.9501038,0.07647296786,,,407.9501038,0.06484222412,407.9501038,0.04834360257,407.9501038,0.03241616488,
407.0246887,0.07500117272,,,407.0246887,0.06355291605,407.0246887,0.04757643119,407.0246887,0.03189222142,
405.9448242,0.07398951799,,,405.9448242,0.06280332059,405.9448242,0.04686418548,405.9448242,0.0315274857,
405.019104,0.07293458283,,,405.019104,0.06173257157,405.019104,0.04612811655,405.019104,0.03102788329,
403.9389038,0.0714545697,,,403.9389038,0.0606065616,403.9389038,0.04522538185,403.9389038,0.0303479936,
403.0128784,0.07145066559,,,403.0128784,0.0601750128,403.0128784,0.04504834488,403.0128784,0.03027180023,
401.932312,0.07089421153,,,401.932312,0.06008721888,401.932312,0.04479991645,401.932312,0.03026871942,
401.0059814,0.07033436,,,401.0059814,0.05931547657,401.0059814,0.04456281289,401.0059814,0.02995734103,
399.9250793,0.06988020986,,,399.9250793,0.05918030068,399.9250793,0.04404387251,399.9250793,0.02967941947,
398.9984436,0.06974094361,,,398.9984436,0.05915873498,398.9984436,0.04415684938,398.9984436,0.02966486849,
398.0716553,0.06920009851,,,398.0716553,0.05860390887,398.0716553,0.04357090592,398.0716553,0.02924522944,
396.9902344,0.06929676235,,,396.9902344,0.05868766829,396.9902344,0.04391207546,396.9902344,0.02950652875,
396.0631714,0.06916667521,,,396.0631714,0.05844150111,396.0631714,0.04364949837,396.0631714,0.02942715771,
394.9814148,0.06869900227,,,394.9814148,0.05806402117,394.9814148,0.04341127723,394.9814148,0.02909296565,
394.0540161,0.06881060451,,,394.0540161,0.05818484724,394.0540161,0.04351685196,394.0540161,0.02914342843,
392.9719238,0.06897569448,,,392.9719238,0.05829354003,392.9719238,0.0435385406,392.9719238,0.02935683168,
392.0442505,0.06891989708,,,392.0442505,0.0583166033,392.0442505,0.04373202473,392.0442505,0.02929147333,
390.961792,0.06909750402,,,390.961792,0.05865504593,390.961792,0.04384205863,390.961792,0.02947788127,
390.033844,0.06879595667,,,390.033844,0.05866666138,390.033844,0.04382596537,390.033844,0.02933027223,
388.9510498,0.06993278116,,,388.9510498,0.05935120583,388.9510498,0.04422517121,388.9510498,0.02986369282,
388.0227966,0.07011003792,,,388.0227966,0.05924705416,388.0227966,0.04438942671,388.0227966,0.02978902496,
386.9396362,0.07041161507,,,386.9396362,0.05974195898,386.9396362,0.04460512102,386.9396362,0.03013806976,
386.0111084,0.07051748037,,,386.0111084,0.05979242548,386.0111084,0.04475379735,386.0111084,0.03021313064,
384.9276428,0.07126194239,,,384.9276428,0.06050844863,384.9276428,0.04521759599,384.9276428,0.03045246378,
383.9987793,0.07104829699,,,383.9987793,0.05996686965,383.9987793,0.04515276849,383.9987793,0.03010724485,
383.0698242,0.07163300365,,,383.0698242,0.06064445153,383.0698242,0.04532590881,383.0698242,0.03051994182,
381.9858704,0.07192219794,,,381.9858704,0.06105665863,381.9858704,0.0457072854,381.9858704,0.03060142882,
381.0566101,0.07193539292,,,381.0566101,0.06107250974,381.0566101,0.04584158212,381.0566101,0.03074905276,
379.97229,0.07203132659,,,379.97229,0.06133704633,379.97229,0.04572761804,379.97229,0.03075110912,
379.0427551,0.07223074883,,,379.0427551,0.06122493371,379.0427551,0.04583761096,379.0427551,0.03098184429,
377.9581299,0.07189574093,,,377.9581299,0.06076546386,377.9581299,0.04573285207,377.9581299,0.03079492971,
377.0282898,0.07039286941,,,377.0282898,0.05983767286,377.0282898,0.0451086238,377.0282898,0.03019550815,
375.9433289,0.07072047144,,,375.9433289,0.06013044342,375.9433289,0.0451229848,375.9433289,0.03042622656,
375.0132141,0.07053589821,,,375.0132141,0.06000672653,375.0132141,0.04509219527,375.0132141,0.03047056869,
373.9279175,0.0697786361,,,373.9279175,0.05927319452,373.9279175,0.04436517134,373.9279175,0.02989533171,
372.9975281,0.06929633766,,,372.9975281,0.05892013013,372.9975281,0.04396523535,372.9975281,0.02981979959,
372.0670166,0.0687033087,,,372.0670166,0.05830861256,372.0670166,0.04377445579,372.0670166,0.02959153801,
370.9812622,0.06747080386,,,370.9812622,0.05741198733,370.9812622,0.04286330938,370.9812622,0.0289239604,
370.0504456,0.0671133101,,,370.0504456,0.05679004639,370.0504456,0.04240746424,370.0504456,0.02865214646,
368.9643555,0.06625849009,,,368.9643555,0.05615895241,368.9643555,0.04204677045,368.9643555,0.02845365368,
368.0332642,0.06540799886,,,368.0332642,0.05548617989,368.0332642,0.04154686257,368.0332642,0.02803090401,
366.9468689,0.06469675153,,,366.9468689,0.05478141084,366.9468689,0.04097845033,366.9468689,0.02778255194,
366.0155029,0.06397101283,,,366.0155029,0.05425892025,366.0155029,0.04070075229,366.0155029,0.02747242898,
364.928772,0.06340400875,,,364.928772,0.05366833508,364.928772,0.04008061066,364.928772,0.02710331045,
363.9971313,0.06298873574,,,363.9971313,0.05325336382,363.9971313,0.03998923674,363.9971313,0.02700592205,
363.0653992,0.06283084303,,,363.0653992,0.05283943564,363.0653992,0.03950127214,363.0653992,0.02672787011,
361.9781799,0.0615407154,,,361.9781799,0.05245726556,361.9781799,0.03947573155,361.9781799,0.02676853351,
361.0461426,0.06166728586,,,361.0461426,0.05203840137,361.0461426,0.03905438259,361.0461426,0.02650084347,
359.9586487,0.06124740839,,,359.9586487,0.05198844522,359.9586487,0.03887735307,359.9586487,0.02637852915,
359.0263367,0.06147554889,,,359.0263367,0.05223174021,359.0263367,0.03884790838,359.0263367,0.02632937767,
357.9385071,0.06158545613,,,357.9385071,0.05217706412,357.9385071,0.03895696625,357.9385071,0.02617961727,
357.0059204,0.06166833267,,,357.0059204,0.05224820599,357.0059204,0.03925627843,357.0059204,0.02631972358,
356.0732422,0.06221487373,,,356.0732422,0.05255579948,356.0732422,0.03951950371,356.0732422,0.02666516416,
354.9849548,0.06289737672,,,354.9849548,0.05330879241,354.9849548,0.03993307427,354.9849548,0.02680498734,
354.052002,0.06369182467,,,354.052002,0.05355150998,354.052002,0.04038402066,354.052002,0.02701941878,
352.9633789,0.06512004137,,,352.9633789,0.05549850315,352.9633789,0.04140485823,352.9633789,0.0277759023,
352.0301514,0.06658869982,,,352.0301514,0.05659985915,352.0301514,0.04245381802,352.0301514,0.02835101634,
350.9412537,0.06908518076,,,350.9412537,0.05853595212,350.9412537,0.04387931526,350.9412537,0.02937907167,
350.0077515,0.07191834599,,,350.0077515,0.06129277498,350.0077515,0.04598973319,350.0077515,0.03082822077,

Fluo 0.1 target,
Fluo 0.1 target
Collection Time: 2026-01-27 15:10:30
Operator Name  :
Scan Software Version: 3.00(339)
Parameter List :
Instrument                        Cary 50
Instrument Version                3.00
Start (nm)                        700.0
Stop (nm)                         350.0
X Mode                            Nanometers
Y Mode                            Abs
UV-Vis Scan Rate (nm/min)         600.00
UV-Vis Data Interval (nm)         1.00
UV-Vis Ave. Time (sec)            0.1000
Beam Mode                         Dual Beam
Baseline Correction               On
Baseline Type                     Baseline correction
Baseline File Name
Baseline Std Ref File Name
Cycle Mode                        Off
Comments
Method Log     :
Method Name    :
Date/Time stamp: 2026-01-27 12:04:29
Method Modifications:
UVVIS SAT Changed: 2026-01-27 12:06:18, Old:0.0125, New:0.1000
Common SAT Changed: 2026-01-27 12:06:18, Old:0.0125, New:0.1000
X Start nm Changed: 2026-01-27 12:06:26, Old:  800.0, New:  700.0
X Stop nm Changed: 2026-01-27 12:06:26, Old:  200.0, New:  350.0
Common Interval nm Changed: 2026-01-27 12:06:26, Old:     5.00, New:     1.00
Baseline Correction Changed: 2026-01-27 12:07:43, Old:0, New:1
Baseline Correction Changed: 2026-01-27 12:09:26, Old:1, New:0
Baseline Correction Changed: 2026-01-27 15:07:12, Old:0, New:1
End Method Modifications
<Current Wavelength> , 350.0

Fluo 0.1 target,
Fluo 0.1 target
Collection Time: 2026-01-27 15:11:13
Operator Name  :
Scan Software Version: 3.00(339)
Parameter List :
Instrument                        Cary 50
Instrument Version                3.00
Start (nm)                        700.0
Stop (nm)                         350.0
X Mode                            Nanometers
Y Mode                            Abs
UV-Vis Scan Rate (nm/min)         600.00
UV-Vis Data Interval (nm)         1.00
UV-Vis Ave. Time (sec)            0.1000
Beam Mode                         Dual Beam
Baseline Correction               On
Baseline Type                     Baseline correction
Baseline File Name
Baseline Std Ref File Name
Cycle Mode                        Off
Comments
Method Log     :
Method Name    :
Date/Time stamp: 2026-01-27 12:04:29
Method Modifications:
UVVIS SAT Changed: 2026-01-27 12:06:18, Old:0.0125, New:0.1000
Common SAT Changed: 2026-01-27 12:06:18, Old:0.0125, New:0.1000
X Start nm Changed: 2026-01-27 12:06:26, Old:  800.0, New:  700.0
X Stop nm Changed: 2026-01-27 12:06:26, Old:  200.0, New:  350.0
Common Interval nm Changed: 2026-01-27 12:06:26, Old:     5.00, New:     1.00
Baseline Correction Changed: 2026-01-27 12:07:43, Old:0, New:1
Baseline Correction Changed: 2026-01-27 12:09:26, Old:1, New:0
Baseline Correction Changed: 2026-01-27 15:07:12, Old:0, New:1
End Method Modifications
<Current Wavelength> , 672.0

Fluo 0.08 target,
Fluo 0.08 target
Collection Time: 2026-01-27 15:15:59
Operator Name  :
Scan Software Version: 3.00(339)
Parameter List :
Instrument                        Cary 50
Instrument Version                3.00
Start (nm)                        700.0
Stop (nm)                         350.0
X Mode                            Nanometers
Y Mode                            Abs
UV-Vis Scan Rate (nm/min)         600.00
UV-Vis Data Interval (nm)         1.00
UV-Vis Ave. Time (sec)            0.1000
Beam Mode                         Dual Beam
Baseline Correction               On
Baseline Type                     Baseline correction
Baseline File Name
Baseline Std Ref File Name
Cycle Mode                        Off
Comments
Method Log     :
Method Name    :
Date/Time stamp: 2026-01-27 12:04:29
Method Modifications:
UVVIS SAT Changed: 2026-01-27 12:06:18, Old:0.0125, New:0.1000
Common SAT Changed: 2026-01-27 12:06:18, Old:0.0125, New:0.1000
X Start nm Changed: 2026-01-27 12:06:26, Old:  800.0, New:  700.0
X Stop nm Changed: 2026-01-27 12:06:26, Old:  200.0, New:  350.0
Common Interval nm Changed: 2026-01-27 12:06:26, Old:     5.00, New:     1.00
Baseline Correction Changed: 2026-01-27 12:07:43, Old:0, New:1
Baseline Correction Changed: 2026-01-27 12:09:26, Old:1, New:0
Baseline Correction Changed: 2026-01-27 15:07:12, Old:0, New:1
End Method Modifications
<Current Wavelength> , 350.0

Fluo 0.06 target,
Fluo 0.06 target
Collection Time: 2026-01-27 15:19:20
Operator Name  :
Scan Software Version: 3.00(339)
Parameter List :
Instrument                        Cary 50
Instrument Version                3.00
Start (nm)                        700.0
Stop (nm)                         350.0
X Mode                            Nanometers
Y Mode                            Abs
UV-Vis Scan Rate (nm/min)         600.00
UV-Vis Data Interval (nm)         1.00
UV-Vis Ave. Time (sec)            0.1000
Beam Mode                         Dual Beam
Baseline Correction               On
Baseline Type                     Baseline correction
Baseline File Name
Baseline Std Ref File Name
Cycle Mode                        Off
Comments
Method Log     :
Method Name    :
Date/Time stamp: 2026-01-27 12:04:29
Method Modifications:
UVVIS SAT Changed: 2026-01-27 12:06:18, Old:0.0125, New:0.1000
Common SAT Changed: 2026-01-27 12:06:18, Old:0.0125, New:0.1000
X Start nm Changed: 2026-01-27 12:06:26, Old:  800.0, New:  700.0
X Stop nm Changed: 2026-01-27 12:06:26, Old:  200.0, New:  350.0
Common Interval nm Changed: 2026-01-27 12:06:26, Old:     5.00, New:     1.00
Baseline Correction Changed: 2026-01-27 12:07:43, Old:0, New:1
Baseline Correction Changed: 2026-01-27 12:09:26, Old:1, New:0
Baseline Correction Changed: 2026-01-27 15:07:12, Old:0, New:1
End Method Modifications
<Current Wavelength> , 350.0

Fluo 0.04 target,
Fluo 0.04 target
Collection Time: 2026-01-27 15:23:29
Operator Name  :
Scan Software Version: 3.00(339)
Parameter List :
Instrument                        Cary 50
Instrument Version                3.00
Start (nm)                        700.0
Stop (nm)                         350.0
X Mode                            Nanometers
Y Mode                            Abs
UV-Vis Scan Rate (nm/min)         600.00
UV-Vis Data Interval (nm)         1.00
UV-Vis Ave. Time (sec)            0.1000
Beam Mode                         Dual Beam
Baseline Correction               On
Baseline Type                     Baseline correction
Baseline File Name
Baseline Std Ref File Name
Cycle Mode                        Off
Comments
Method Log     :
Method Name    :
Date/Time stamp: 2026-01-27 12:04:29
Method Modifications:
UVVIS SAT Changed: 2026-01-27 12:06:18, Old:0.0125, New:0.1000
Common SAT Changed: 2026-01-27 12:06:18, Old:0.0125, New:0.1000
X Start nm Changed: 2026-01-27 12:06:26, Old:  800.0, New:  700.0
X Stop nm Changed: 2026-01-27 12:06:26, Old:  200.0, New:  350.0
Common Interval nm Changed: 2026-01-27 12:06:26, Old:     5.00, New:     1.00
Baseline Correction Changed: 2026-01-27 12:07:43, Old:0, New:1
Baseline Correction Changed: 2026-01-27 12:09:26, Old:1, New:0
Baseline Correction Changed: 2026-01-27 15:07:12, Old:0, New:1
End Method Modifications
<Current Wavelength> , 350.0

